X,Y,fid,vertex_index,vertex_part,vertex_part_index,distance,angle
1106482.1486866,3104245.16547599,2,0,0,0,0,110.102991754012
1106614.37037811,3104196.77137921,3,1,0,1,140.799731215328,107.561372093688
1106720.27360465,3104168.35556069,4,2,0,2,250.448954343681,102.219301717128
1106814.37037811,3104152.74613168,5,3,0,3,345.831641717804,99.1950374400824
1106932.6578434,3104134.07213162,6,4,0,4,465.58406433064,96.9350703125978
1107053.84045371,3104123.68542509,7,5,0,5,587.210988626533,92.2595873208537
1107190.96812286,3104124.59428631,8,6,0,6,724.341669638895,87.0903061802254
1107286.67136473,3104133.7077237,9,7,0,7,820.4778503718,81.6686550589296
1107434.02966368,3104162.94704863,10,8,0,8,970.709026865949,72.4635871662126
1107551.89031033,3104215.05215769,11,9,0,9,1099.57358530114,62.8620699696156
1107648.35386582,3104271.70602478,12,10,0,10,1211.44350169348,56.0686365066061
1107731.66123197,3104335.48379136,13,11,0,11,1316.36118735267,51.4191870841829
1107814.37037811,3104404.21117796,14,12,0,12,1423.89842055553,51.4869330216552
1107937.39282035,3104497.93308836,15,13,0,13,1578.55390148583,51.5107128846455
1108090.75731713,3104625.15667125,16,14,0,14,1777.81882293228,51.6219351458784
1108232.66038061,3104732.39425767,17,15,0,15,1955.68500680559,54.2141586057625
1108370.27312074,3104826.94801888,18,16,0,16,2122.6511111613,55.0949037495157
1108564.37037811,3104964.4641438,19,17,0,17,2360.52593104342,56.6994809805681
1108764.37037811,3105085.98868857,20,18,0,18,2594.55202997609,58.8757078920101
1108889.75759914,3105161.22403082,21,19,0,19,2740.77894924612,63.5038690785536
1109070.85433398,3105234.49296784,22,20,0,20,2936.13596730008,73.6242533428153
1109228.10161255,3105264.27337199,23,21,0,21,3096.17839632541,80.8606095289521
1109344.60026398,3105279.72404219,24,22,0,22,3213.69715650779,87.0909389443406
1109494.83797781,3105275.16887766,25,23,0,23,3364.00391011857,95.2798868617443
1109652.19507267,3105250.74370637,26,24,0,24,3523.24537549677,102.922750183779
1109789.32112812,3105208.761472,27,25,0,25,3666.65410286742,109.9548488724
1110022.31107051,3105110.40346529,28,26,0,26,3919.5544997396,104.880109344192
1110186.15637811,3105090.65461017,29,27,0,27,4084.5857152736,92.4717925154463
1110310.61337994,3105094.84703849,30,28,0,28,4209.11330965196,83.662298773591
1110429.60043465,3105117.42900322,31,29,0,29,4330.22426835243,63.8854230156702
1110510.11020427,3105188.61564055,32,30,0,30,4437.69221864382,38.914325413098
1110544.94086701,3105250.65340211,33,31,0,31,4508.83896085047,19.2303285276887
1110558.00444921,3105331.76841596,34,32,0,32,4590.99918633348,6.03355407111555
1110563.77440674,3105444.95841931,35,33,0,33,4704.33615854247,355.677247484335
1110542.14815589,3105550.65340211,36,34,0,34,4812.22093093497,344.696600405523
1110513.28061467,3105634.28631703,37,35,0,35,4900.69578269994,337.901351908064
1110464.70615447,3105737.72695029,38,36,0,36,5014.97370179472,332.642722793215
1110422.21687835,3105812.64218492,39,37,0,37,5101.09937140341,328.417392281397
1110327.11102299,3105955.76178142,40,38,0,38,5272.93750053974,329.968206999441
1110288.60746671,3106033.12741297,41,39,0,39,5359.35488762636,335.616989094085
1110240.38911348,3106150.65340211,42,40,0,40,5486.38782710194,342.930187968024
1110220.95913636,3106243.39783334,43,41,0,41,5581.14569503986,352.176312530682
1110214.42799718,3106341.34044033,44,42,0,42,5679.30581953787,2.59860712952654
1110228.6272956,3106430.86749917,45,43,0,43,5769.95191344709,14.7518583063487
1110258.66900882,3106511.25416262,46,44,0,44,5855.76869615214,23.6778444334706
1110303.9536408,3106600.65340211,47,45,0,45,5955.98307593128,32.9091507594338
1110384.7994571,3106700.65340211,48,46,0,46,6084.57563408332,46.4480460075261
1110469.77611554,3106762.52407835,49,47,0,47,6189.68991979006,59.849385525443
1110554.44678512,3106800.65340211,50,48,0,48,6282.54985526683,68.4599480939683
1110664.37037811,3106838.15340211,51,49,0,49,6398.69393086456,77.8728277311973
1110796.17754715,3106850.65340211,52,50,0,50,6531.09249509287,93.0583046812107
1110899.37240135,3106829.5942395,53,51,0,51,6636.41422249207,107.053463430609
1110968.99127893,3106800.65340211,54,52,0,52,6711.80891848848,114.513943314682
1111069.47313917,3106750.65340211,55,53,0,53,6824.04351314394,117.509225889802
1111178.81396853,3106691.1293973,56,54,0,54,6948.53658167915,119.486646728712
1111296.62941343,3106621.9801668,57,55,0,55,7085.14586078024,121.69929981794
1111386.15612741,3106563.86590142,58,56,0,56,7191.88058032598,125.270764189393
1111508.63209351,3106469.70730089,59,57,0,57,7346.36748697714,129.124497211911
1111705.20187098,3106300.65340211,60,58,0,58,7605.63356286688,133.288225731833
1111782.45670955,3106220.98750873,61,59,0,59,7716.60637327349,136.896333017601
1111846.63375143,3106149.93046691,62,60,0,60,7812.35498107966,138.519395845013
1111964.37037811,3106013.88499995,63,61,0,61,7992.27241309472,142.840417927989
1112016.09364688,3105935.5781032,64,62,0,62,8086.11945146432,148.988901321165
1112064.37037811,3105846.94634967,65,63,0,63,8187.04630870927,154.153567387649
1112097.62840304,3105769.03514993,66,64,0,64,8271.75906610761,158.781648920004
1112132.80711256,3105668.69549226,67,65,0,65,8378.08680710447,165.928701798475
1112155.00775007,3105525.65340211,68,66,0,66,8522.84145421678,174.147572285726
1112160.19302629,3105422.68045442,69,67,0,67,8625.94487338845,181.299139868504
1112153.28169717,3105350.65340211,70,68,0,68,8698.30275295345,187.056188093314
1112135.53197975,3105233.72178699,71,69,0,69,8816.57386135119,192.807430498806
1112110.16158239,3105150.65340211,72,70,0,70,8903.43014281448,198.905997597352
1112065.38533757,3105032.95547315,73,71,0,71,9029.35756072437,205.673980125348
1111964.37037811,3104861.59924498,74,72,0,72,9228.27206237628,213.988309279352
1111879.37037811,3104750.65340211,75,73,0,73,9368.03607795158,216.801594334098
1111817.75741431,3104666.30338027,76,74,0,74,9472.49220986047,217.152465549294
1111743.33584626,3104571.59070321,77,75,0,75,9592.94577346724,216.863616099356
1111684.6982418,3104489.59086016,78,76,0,76,9693.75422012963,214.775117539344
1111634.5130441,3104415.13751927,79,77,0,77,9783.54204802327,210.46662859973
1111599.27821546,3104345.83989826,80,78,0,78,9861.28298592953,205.118112161133
1111572.87244885,3104284.48178855,81,79,0,79,9928.08180430743,201.917231771877
1111549.18697814,3104221.29890583,82,80,0,80,9995.55830534844,196.940562440956
1111526.55181796,3104125.7802419,83,81,0,81,10093.7222785466,191.031827897324
1111513.70652692,3104042.149552,84,82,0,82,10178.3337068273,186.594273698228
1111508.24585778,3103972.08385774,85,83,0,83,10248.6118714306,180.752730718359
1111511.23420641,3103914.11341473,86,84,0,84,10306.6592873042,176.475999211199
1111516.57481853,3103839.55408705,87,85,0,85,10381.4096416953,175.400929124579
1111522.39506943,3103774.35356823,88,86,0,86,10446.8694230528,171.209733720777
1111536.00177025,3103712.87328277,89,87,0,87,10509.8374133909,162.801150354089
1111561.03704478,3103650.65340211,90,88,0,88,10576.905129325,153.122534332058
1111601.3844093,3103585.67265401,91,89,0,89,10653.3930855478,143.429970962133
1111647.40308694,3103533.29694565,92,90,0,90,10723.1134808317,134.405170758194
1111727.46142067,3103465.8487662,93,91,0,91,10827.7967827972,125.898012382056
1111796.29054102,3103423.36841692,94,92,0,92,10908.6795861768,118.388568749945
1111864.37037811,3103391.48495861,95,93,0,93,10983.855507406,113.700197505769
1111940.55528786,3103360.23062999,96,94,0,94,11066.202174194,109.355134775564
1112006.04498792,3103340.95010007,97,95,0,95,11134.4710517845,105.512321954024
1112061.77852788,3103326.41190324,98,96,0,96,11192.0695469385,100.00125338504
1112116.04445112,3103321.29890583,99,97,0,97,11246.5758141645,93.0644747191918
1112160.87996616,3103320.71482086,100,98,0,98,11291.4151335678,89.47196597126
1112200.55364365,3103321.9633036,101,99,0,99,11331.1084503167,84.3304554269649
1112256.98930056,3103331.44451339,102,100,0,100,11388.3349888238,77.4516899449885
1112313.96156352,3103347.3085513,103,101,0,101,11447.4747085289,72.1033982426201
1112378.97567372,3103371.27191695,104,102,0,102,11516.7645159881,68.3098829122528
1112461.37761417,3103406.49923637,105,103,0,103,11606.3806073079,65.552600040954
1112540.98963614,3103444.89575623,106,104,0,104,11694.7682013423,63.2332289767516
1112608.70575405,3103480.57687635,107,105,0,105,11771.3097910676,61.6208961673328
1112676.77594681,3103518.26605477,108,106,0,106,11849.1174083879,61.2220354331475
1112753.00238992,3103559.79751814,109,107,0,107,11935.9237046934,59.1823127888156
1112813.78926485,3103599.3513288,110,108,0,108,12008.4464466584,56.4776281581823
1112873.97310559,3103639.93488296,111,109,0,109,12081.0351479429,54.6309594073955
1112955.29911912,3103700.65340211,112,110,0,110,12182.5273104211,51.9484615412951
1113042.63223417,3103772.28203575,113,111,0,111,12295.4774504881,50.6858896368319
1113127.91488046,3103842.01152036,114,112,0,112,12405.6379278967,49.8377059009791
1113236.72257021,3103936.77743138,115,113,0,113,12549.9282298584,47.5998229216363
1113360.66568455,3104055.41124254,116,114,0,114,12721.4970986573,44.6722810867033
1113489.37037811,3104192.99271452,117,115,0,115,12909.8944435884,44.7335070132034
1113586.71612512,3104285.77066258,118,116,0,116,13044.370992129,47.518048922294
1113696.13595303,3104382.03440973,119,117,0,117,13190.1084538746,49.6577850293284
1113814.37037811,3104478.9607078,120,118,0,118,13342.9943149974,57.9506950396797
1113907.83832675,3104522.05866999,121,119,0,119,13445.9199763586,68.6685459936279
1113996.32424514,3104550.65340211,122,120,0,120,13538.9114623095,73.8572299901141
1114095.99392128,3104576.20158912,123,121,0,121,13641.8034163231,79.2277392764459
1114193.72444026,3104588.49153898,124,122,0,122,13740.3036559558,83.1879378617833
1114264.37037811,3104596.4864327,125,123,0,123,13811.4005395792,85.8868792592292
1114399.24217299,3104600.65340211,126,124,0,124,13946.3366899838,91.9493769541311
1114541.92420972,3104586.49134182,127,125,0,125,14089.7198394728,99.4488011426361
1114694.37037811,3104550.65340211,128,126,0,126,14246.3218579197,107.20885030127
1114819.70325813,3104502.06895239,129,127,0,127,14380.7420184842,114.624479540945
1114918.00312029,3104449.66883331,130,128,0,128,14492.1360729992,125.472852687852
1115014.37037811,3104360.16512297,131,129,0,129,14623.656271242,145.029966905348
1115064.37037811,3104241.36669126,132,130,0,130,14752.5479597877,166.478716137774
1115074.74635468,3104100.65340211,133,131,0,131,14893.6432844222,178.367863595636
1115072.25118875,3103950.65340211,134,132,0,132,15043.6640358302,182.570506469698
1115057.60615803,3103750.65340211,135,133,0,133,15244.1995113072,190.598740221739
1115027.01502954,3103650.65340211,136,134,0,134,15348.7739687146,197.531653108183
1114981.34031988,3103510.52929507,137,135,0,135,15496.1542403758,199.050671309807
1114924.45083012,3103354.6289642,138,136,0,136,15662.1100393467,199.259321913715
1114868.04723667,3103185.77383174,139,137,0,137,15840.1365011774,196.159198650765
1114839.37562788,3103069.45814236,140,138,0,138,15959.9338331442,189.484432594064
1114828.61632178,3102949.41391306,141,139,0,139,16080.4592647126,184.205887856033
1114824.92704798,3102885.23854829,142,140,0,140,16144.7405853662,182.308494572224
1114823.19711535,3102810.5489328,143,141,0,141,16219.4502321937,180.844643919595
1114822.77140376,3102743.25592245,144,142,0,142,16286.7445891036,179.432949434798
1114824.7397737,3102667.91419644,145,143,0,143,16362.1120234467,178.236420442932
1114827.50617081,3102589.8895652,146,144,0,144,16440.1856811884,176.08344497471
1114834.47706438,3102521.2923338,147,145,0,145,16509.1361961445,173.022390079668
1114845.87283415,3102441.74611133,148,146,0,146,16589.4945502704,172.055110372154
1114854.85247007,3102375.65340211,149,147,0,147,16656.1944758565,169.760818815447
1114877.8533357,3102273.93235894,150,148,0,148,16760.4835473955,164.395955739607
1114909.74801009,3102178.42534297,151,149,0,149,16861.1754554859,159.566680152702
1114933.75396831,3102120.18206152,152,150,0,150,16924.1720098687,156.95504615009
1114970.7994411,3102035.75035382,153,151,0,151,17016.3733131022,153.625367564672
1115014.37037811,3101957.33747522,154,152,0,152,17106.0784193359,150.459831330832
1115077.78279637,3101847.59747242,155,153,0,153,17232.8222673166,147.372741037683
1115164.37037811,3101725.00343381,156,154,0,154,17382.9112663004,142.274427202438
1115241.29314981,3101634.03486165,157,155,0,155,17502.0431005253,136.954190373636
1115314.37037811,3101563.15340211,158,156,0,156,17603.8491052813,132.819879464885
1115394.35557872,3101492.35459455,159,157,0,157,17710.6671911443,129.88287984524
1115476.1676255,3101427.85420119,160,158,0,158,17814.8473799628,127.497293048436
1115553.97212525,3101369.77082106,161,159,0,159,17911.9412480902,126.346782134258
1115626.68584814,3101317.03591456,162,160,0,160,18001.7647186324,125.384326632478
1115714.37037811,3101256.05379273,163,161,0,161,18108.5701303854,122.149636471732
1115813.31101747,3101200.11747431,164,162,0,162,18222.2280462369,117.049536391506
1115905.40132306,3101157.92155138,165,163,0,163,18323.525234227,113.583541438874
1116002.40193865,3101117.64385457,166,164,0,164,18428.5557644808,111.016155342379
1116099.20825495,3101083.3961102,167,165,0,165,18531.2415515658,108.968790622486
1116189.66611909,3101053.20826221,168,166,0,166,18626.6036580415,108.357232828481
1116341.33987818,3101003.16605471,169,167,0,167,18786.3195048677,109.027823948666
1116510.51516284,3100942.27184553,170,168,0,168,18966.1204549516,110.322123859174
1116635.9105897,3100894.51824868,171,169,0,169,19100.3010015697,110.858281570474
1116766.31602363,3100844.80332098,172,170,0,170,19239.8615663213,112.559279018942
1116896.27807462,3100786.25959656,173,171,0,171,19382.4010428432,117.973050295399
1116984.60341782,3100731.7171262,174,172,0,172,19486.2097482766,124.374657170784
1117075.02942553,3100663.44439539,175,173,0,173,19599.5147730672,128.053925273749
1117127.62668242,3100620.7689158,176,174,0,174,19667.2470991021,132.679550610826
1117173.68255292,3100572.56662631,177,175,0,175,19733.9149618264,137.754049501726
1117228.1404486,3100509.46852805,178,176,0,176,19817.2638214811,141.856953143875
1117265.40481436,3100457.20593499,179,177,0,177,19881.4511378947,151.117330046151
1117285.23106708,3100408.80594279,180,178,0,178,19933.7544794955,163.294532959592
1117291.46416577,3100377.13882759,181,179,0,179,19966.0292018743,177.328992974182
1117285.02458238,3100313.66822076,182,180,0,180,20029.8256450802,190.556834101372
1117269.44712681,3100256.80615579,183,181,0,181,20088.7828461197,199.329820695749
1117247.97577458,3100207.04409385,184,182,0,182,20142.9795413605,206.280714832048
1117222.93096239,3100162.27238702,185,183,0,183,20194.2801100668,212.695341483221
1117177.32676344,3100099.89022361,186,184,0,184,20271.5541501693,216.90723878467
1117135.93520507,3100046.23131383,187,185,0,185,20339.322429645,219.279007028256
1117088.33105417,3099991.29890583,188,186,0,186,20412.011662905,221.449639236897
1117034.33100246,3099931.29890583,189,187,0,187,20492.7334417844,229.499413228792
1116970.47385112,3099889.84794405,190,188,0,188,20568.864368543,238.725959353755
1116898.58469769,3099849.07612977,191,189,0,189,20651.5105494647,245.306623688203
1116785.93372069,3099808.45911797,192,190,0,190,20771.2602228066,251.622618747212
1116692.29788081,3099779.96095941,193,191,0,191,20869.13675499,254.229821985179
1116578.33100246,3099750.24788044,194,192,0,192,20986.9133079326,257.081842081559
1116441.22478817,3099723.04133265,195,193,0,193,21126.6928137178,261.458498037465
1116358.36748956,3099714.53824873,196,194,0,194,21209.9852765769,265.250081462657
1116259.82525208,3099708.26861282,197,195,0,195,21308.7267617931,267.317208588389
1116199.67215943,3099706.4569228,198,196,0,196,21368.907130487,270.014283585201
1116122.19380549,3099708.82908045,199,197,0,197,21446.421790135,272.435977777435
1116057.33847574,3099712.36226833,200,198,0,198,21511.3732890705,274.440940785138
1115967.49361934,3099721.43072065,201,199,0,199,21601.6746459181,276.321292166749
1115841.70837091,3099736.605586,202,200,0,200,21728.3719436852,278.072229049076
1115730.56331417,3099754.73753253,203,201,0,201,21840.9862905646,281.123470092861
1115595.33137767,3099785.91220031,204,202,0,202,21979.7650229415,283.808462323384
1115491.6280281,3099812.9934533,205,203,0,203,22086.9460799258,285.608704041052
1115382.98985203,3099845.34262659,206,204,0,204,22200.2982846369,289.151295223389
1115260.65086961,3099894.07829235,207,205,0,205,22331.9872808951,295.655858011432
1115188.75512743,3099934.90593835,208,206,0,206,22414.6667488482,301.035252314154
1115122.36446488,3099977.16796097,209,207,0,207,22493.3674390008,304.720471737393
1115064.37037811,3100020.80858757,210,208,0,208,22565.9471771534,306.635717207529
1115014.37037811,3100057.55057589,211,209,0,209,22627.9953334955,307.948468139542
1114952.0989251,3100109.042228,212,210,0,210,22708.7983290973,308.890995002093
1114879.79890093,3100165.92647831,213,211,0,211,22800.7934997758,307.982082485587
1114785.49317962,3100238.99629353,214,212,0,212,22920.0946605702,306.616265485406
1114676.77118477,3100316.44204323,215,213,0,213,23053.5799268414,305.876469772839
1114591.13915919,3100379.32107944,216,214,0,214,23159.818417978,306.880755298609
1114539.7874711,3100418.68464019,217,215,0,215,23224.5214765232,307.806758672871
1114451.74503455,3100487.82201552,218,216,0,216,23336.465423665,307.720586721686
1114388.04082136,3100536.3508694,219,217,0,217,23416.5483584048,300.973552132008
1114295.7454677,3100578.69963364,220,218,0,218,23518.0956387192,287.721627802709
1114216.34579105,3100593.83979021,221,219,0,219,23598.9259114682,274.399412122352
1114124.59360067,3100590.64070454,222,220,0,220,23690.7338555131,261.694148056376
1114019.81701357,3100563.31953593,223,221,0,221,23799.0139527566,250.949513302472
1113916.81707377,3100518.5634494,224,222,0,222,23911.3175363182,242.622614091891
1113836.52245582,3100469.80380202,225,223,0,223,24005.2575644439,237.770068160849
1113755.47717021,3100416.78690679,226,224,0,224,24102.1034703923,233.797280399785
1113680.27618491,3100355.42348572,227,225,0,225,24199.163542692,227.525088572131
1113620.51404017,3100294.10667248,228,226,0,226,24284.786352329,217.542624260211
1113569.20455188,3100208.10552237,229,227,0,227,24384.9305554021,209.21673534815
1113528.81492595,3100130.88858446,230,228,0,228,24472.0728378051,202.689157650576
1113507.21639885,3100063.47857999,231,229,0,229,24542.8584654134,198.919745417222
1113466.65207591,3099952.47382106,232,230,0,230,24661.0427317144,199.743561027254
1113427.95385224,3099842.66604341,233,231,0,231,24777.4699645527,197.619855353897
1113402.28491961,3099752.11288545,234,232,0,232,24871.5909957825,195.02551290372
1113376.5652096,3099650.65340211,235,233,0,233,24976.2596646489,191.830129279439
1113359.87963069,3099550.25091349,236,234,0,234,25078.0391727224,188.445087335015
1113341.03613207,3099406.23862829,237,235,0,235,25223.2790285778,187.234375756076
1113329.77966893,3099314.74891307,238,236,0,236,25315.4586139185,186.567813560115
1113318.38211219,3099208.47628808,239,237,0,237,25422.340675659,185.553887681281
1113305.07486073,3099055.9536714,240,238,0,238,25575.4427055009,184.19073218431
1113296.39032849,3098909.56768505,241,239,0,239,25722.0860759548,182.249637394293
1113294.11096441,3098791.29890583,242,240,0,240,25840.3768179454,177.744492386047
1113305.61349825,3098674.30501919,243,241,0,241,25957.9347942605,170.880615437807
1113338.33100246,3098528.21851514,244,242,0,242,26107.6401774173,162.219983800095
1113371.90530282,3098448.87762688,245,243,0,243,26193.7924275079,156.391318281678
1113406.90243103,3098371.29890583,246,244,0,244,26278.89975353,152.71547587924
